,UCOR,CUMCO,term,sigma,scale,id
0,0.0,0.139977788971,60,0.54646501,1.55103037,1
1,0.0,0.139977788971,60,0.54646501,1.55103037,1
2,4.06716338455e-10,0.139977788971,60,0.54646501,1.55103037,1
3,3.48791757481e-06,0.139977788971,60,0.54646501,1.55103037,1
4,6.49857499629e-05,0.139977788971,60,0.54646501,1.55103037,1
5,0.000295515260607,0.139977788971,60,0.54646501,1.55103037,1
6,0.000743306531606,0.139977788971,60,0.54646501,1.55103037,1
7,0.00136748149779,0.139977788971,60,0.54646501,1.55103037,1
8,0.00208557125394,0.139977788971,60,0.54646501,1.55103037,1
9,0.00281544981379,0.139977788971,60,0.54646501,1.55103037,1
10,0.00349456439456,0.139977788971,60,0.54646501,1.55103037,1
11,0.00408364576663,0.139977788971,60,0.54646501,1.55103037,1
12,0.00456335636051,0.139977788971,60,0.54646501,1.55103037,1
13,0.00492893010293,0.139977788971,60,0.54646501,1.55103037,1
14,0.00518510419529,0.139977788971,60,0.54646501,1.55103037,1
15,0.00534211771078,0.139977788971,60,0.54646501,1.55103037,1
16,0.00541285492065,0.139977788971,60,0.54646501,1.55103037,1
17,0.00541095274594,0.139977788971,60,0.54646501,1.55103037,1
18,0.00534963463886,0.139977788971,60,0.54646501,1.55103037,1
19,0.00524105560416,0.139977788971,60,0.54646501,1.55103037,1
20,0.00509598863889,0.139977788971,60,0.54646501,1.55103037,1
21,0.00492372838344,0.139977788971,60,0.54646501,1.55103037,1
22,0.0047321254083,0.139977788971,60,0.54646501,1.55103037,1
23,0.00452769302759,0.139977788971,60,0.54646501,1.55103037,1
24,0.00431574896464,0.139977788971,60,0.54646501,1.55103037,1
25,0.00410056834591,0.139977788971,60,0.54646501,1.55103037,1
26,0.00388553402668,0.139977788971,60,0.54646501,1.55103037,1
27,0.00367327650442,0.139977788971,60,0.54646501,1.55103037,1
28,0.00346579967019,0.139977788971,60,0.54646501,1.55103037,1
29,0.0032645911212,0.139977788971,60,0.54646501,1.55103037,1
30,0.00307071722168,0.139977788971,60,0.54646501,1.55103037,1
31,0.00288490391055,0.139977788971,60,0.54646501,1.55103037,1
32,0.00270760465024,0.139977788971,60,0.54646501,1.55103037,1
33,0.00253905705212,0.139977788971,60,0.54646501,1.55103037,1
34,0.002379329703,0.139977788971,60,0.54646501,1.55103037,1
35,0.00222836062306,0.139977788971,60,0.54646501,1.55103037,1
36,0.00208598864898,0.139977788971,60,0.54646501,1.55103037,1
37,0.00195197888547,0.139977788971,60,0.54646501,1.55103037,1
38,0.0018260432165,0.139977788971,60,0.54646501,1.55103037,1
39,0.00170785672606,0.139977788971,60,0.54646501,1.55103037,1
40,0.00159707074871,0.139977788971,60,0.54646501,1.55103037,1
41,0.00149332315634,0.139977788971,60,0.54646501,1.55103037,1
42,0.00139624638795,0.139977788971,60,0.54646501,1.55103037,1
43,0.00130547364436,0.139977788971,60,0.54646501,1.55103037,1
44,0.00122064359694,0.139977788971,60,0.54646501,1.55103037,1
45,0.00114140389867,0.139977788971,60,0.54646501,1.55103037,1
46,0.00106741373438,0.139977788971,60,0.54646501,1.55103037,1
47,0.000998345604468,0.139977788971,60,0.54646501,1.55103037,1
48,0.000933886500816,0.139977788971,60,0.54646501,1.55103037,1
49,0.000873738604199,0.139977788971,60,0.54646501,1.55103037,1
50,0.000817619608365,0.139977788971,60,0.54646501,1.55103037,1
51,0.000765262755851,0.139977788971,60,0.54646501,1.55103037,1
52,0.000716416654277,0.139977788971,60,0.54646501,1.55103037,1
53,0.000670844928377,0.139977788971,60,0.54646501,1.55103037,1
54,0.000628325752042,0.139977788971,60,0.54646501,1.55103037,1
55,0.000588651295663,0.139977788971,60,0.54646501,1.55103037,1
56,0.000551627116738,0.139977788971,60,0.54646501,1.55103037,1
57,0.000517071515792,0.139977788971,60,0.54646501,1.55103037,1
58,0.000484814874784,0.139977788971,60,0.54646501,1.55103037,1
59,0.000454698991325,0.139977788971,60,0.54646501,1.55103037,1
0,0.0,0.136321050916,60,0.54846501,1.55103037,2
1,0.0,0.136321050916,60,0.54846501,1.55103037,2
2,0.0,0.136321050916,60,0.54846501,1.55103037,2
3,6.85260518382e-06,0.136321050916,60,0.54846501,1.55103037,2
4,0.000284924662326,0.136321050916,60,0.54846501,1.55103037,2
5,0.00105934106186,0.136321050916,60,0.54846501,1.55103037,2
6,0.00206710938985,0.136321050916,60,0.54846501,1.55103037,2
7,0.00304981453177,0.136321050916,60,0.54846501,1.55103037,2
8,0.00387760592122,0.136321050916,60,0.54846501,1.55103037,2
9,0.00451032176148,0.136321050916,60,0.54846501,1.55103037,2
10,0.00495358303657,0.136321050916,60,0.54846501,1.55103037,2
11,0.00523203231619,0.136321050916,60,0.54846501,1.55103037,2
12,0.00537556267189,0.136321050916,60,0.54846501,1.55103037,2
13,0.00541297180459,0.136321050916,60,0.54846501,1.55103037,2
14,0.0053694545225,0.136321050916,60,0.54846501,1.55103037,2
15,0.00526595432344,0.136321050916,60,0.54846501,1.55103037,2
16,0.00511934839998,0.136321050916,60,0.54846501,1.55103037,2
17,0.00494295540115,0.136321050916,60,0.54846501,1.55103037,2
18,0.00474712249628,0.136321050916,60,0.54846501,1.55103037,2
19,0.00453978353197,0.136321050916,60,0.54846501,1.55103037,2
20,0.00432694682116,0.136321050916,60,0.54846501,1.55103037,2
21,0.0041131028258,0.136321050916,60,0.54846501,1.55103037,2
22,0.0039015560609,0.136321050916,60,0.54846501,1.55103037,2
23,0.00369469090016,0.136321050916,60,0.54846501,1.55103037,2
24,0.00349418216921,0.136321050916,60,0.54846501,1.55103037,2
25,0.0033011607804,0.136321050916,60,0.54846501,1.55103037,2
26,0.00311634333464,0.136321050916,60,0.54846501,1.55103037,2
27,0.00294013313705,0.136321050916,60,0.54846501,1.55103037,2
28,0.0027726986853,0.136321050916,60,0.54846501,1.55103037,2
29,0.00261403448383,0.136321050916,60,0.54846501,1.55103037,2
30,0.00246400803286,0.136321050916,60,0.54846501,1.55103037,2
31,0.00232239602485,0.136321050916,60,0.54846501,1.55103037,2
32,0.00218891212797,0.136321050916,60,0.54846501,1.55103037,2
33,0.00206322821921,0.136321050916,60,0.54846501,1.55103037,2
34,0.00194499052244,0.136321050916,60,0.54846501,1.55103037,2
35,0.0018338317875,0.136321050916,60,0.54846501,1.55103037,2
36,0.00172938039743,0.136321050916,60,0.54846501,1.55103037,2
37,0.00163126709535,0.136321050916,60,0.54846501,1.55103037,2
38,0.00153912987122,0.136321050916,60,0.54846501,1.55103037,2
39,0.00145261742956,0.136321050916,60,0.54846501,1.55103037,2
40,0.00137139156674,0.136321050916,60,0.54846501,1.55103037,2
41,0.00129512871443,0.136321050916,60,0.54846501,1.55103037,2
42,0.00122352084881,0.136321050916,60,0.54846501,1.55103037,2
43,0.00115627592152,0.136321050916,60,0.54846501,1.55103037,2
44,0.00109311793329,0.136321050916,60,0.54846501,1.55103037,2
45,0.00103378674459,0.136321050916,60,0.54846501,1.55103037,2
46,0.000978037696081,0.136321050916,60,0.54846501,1.55103037,2
47,0.000925641095412,0.136321050916,60,0.54846501,1.55103037,2
48,0.000876381613628,0.136321050916,60,0.54846501,1.55103037,2
49,0.000830057624512,0.136321050916,60,0.54846501,1.55103037,2
50,0.000786480512086,0.136321050916,60,0.54846501,1.55103037,2
51,0.000745473965348,0.136321050916,60,0.54846501,1.55103037,2
52,0.000706873274443,0.136321050916,60,0.54846501,1.55103037,2
53,0.000670524638674,0.136321050916,60,0.54846501,1.55103037,2
54,0.000636284493856,0.136321050916,60,0.54846501,1.55103037,2
55,0.000604018864202,0.136321050916,60,0.54846501,1.55103037,2
56,0.000573602742195,0.136321050916,60,0.54846501,1.55103037,2
57,0.000544919498564,0.136321050916,60,0.54846501,1.55103037,2
58,0.00051786032344,0.136321050916,60,0.54846501,1.55103037,2
59,0.000492323699016,0.136321050916,60,0.54846501,1.55103037,2
0,0.0,0.142579715411,60,0.55146501,1.55103037,3
1,0.0,0.142579715411,60,0.55146501,1.55103037,3
2,0.0,0.142579715411,60,0.55146501,1.55103037,3
3,0.0,0.142579715411,60,0.55146501,1.55103037,3
4,3.36784913231e-10,0.142579715411,60,0.55146501,1.55103037,3
5,1.07642061708e-05,0.142579715411,60,0.55146501,1.55103037,3
6,0.000179576998632,0.142579715411,60,0.55146501,1.55103037,3
7,0.000708271000179,0.142579715411,60,0.55146501,1.55103037,3
8,0.00157447536039,0.142579715411,60,0.55146501,1.55103037,3
9,0.0026100111629,0.142579715411,60,0.55146501,1.55103037,3
10,0.00364309435794,0.142579715411,60,0.55146501,1.55103037,3
11,0.00455642574783,0.142579715411,60,0.55146501,1.55103037,3
12,0.00529044401717,0.142579715411,60,0.55146501,1.55103037,3
13,0.00582816198653,0.142579715411,60,0.55146501,1.55103037,3
14,0.00617863848111,0.142579715411,60,0.55146501,1.55103037,3
15,0.00636434138382,0.142579715411,60,0.55146501,1.55103037,3
16,0.00641287125405,0.142579715411,60,0.55146501,1.55103037,3
17,0.00635209526261,0.142579715411,60,0.55146501,1.55103037,3
18,0.00620759397137,0.142579715411,60,0.55146501,1.55103037,3
19,0.00600154794792,0.142579715411,60,0.55146501,1.55103037,3
20,0.00575245941529,0.142579715411,60,0.55146501,1.55103037,3
21,0.00547532059872,0.142579715411,60,0.55146501,1.55103037,3
22,0.00518199260266,0.142579715411,60,0.55146501,1.55103037,3
23,0.00488165823465,0.142579715411,60,0.55146501,1.55103037,3
24,0.00458127439282,0.142579715411,60,0.55146501,1.55103037,3
25,0.00428598705817,0.142579715411,60,0.55146501,1.55103037,3
26,0.00399949362075,0.142579715411,60,0.55146501,1.55103037,3
27,0.00372434927083,0.142579715411,60,0.55146501,1.55103037,3
28,0.00346222038424,0.142579715411,60,0.55146501,1.55103037,3
29,0.00321409065254,0.142579715411,60,0.55146501,1.55103037,3
30,0.00298042663392,0.142579715411,60,0.55146501,1.55103037,3
31,0.00276130931779,0.142579715411,60,0.55146501,1.55103037,3
32,0.00255653772374,0.142579715411,60,0.55146501,1.55103037,3
33,0.00236570978819,0.142579715411,60,0.55146501,1.55103037,3
34,0.00218828499107,0.142579715411,60,0.55146501,1.55103037,3
35,0.00202363242091,0.142579715411,60,0.55146501,1.55103037,3
36,0.00187106730768,0.142579715411,60,0.55146501,1.55103037,3
37,0.0017298784772,0.142579715411,60,0.55146501,1.55103037,3
38,0.00159934869982,0.142579715411,60,0.55146501,1.55103037,3
39,0.00147876950808,0.142579715411,60,0.55146501,1.55103037,3
40,0.00136745173413,0.142579715411,60,0.55146501,1.55103037,3
41,0.00126473275571,0.142579715411,60,0.55146501,1.55103037,3
42,0.0011699812292,0.142579715411,60,0.55146501,1.55103037,3
43,0.00108259992041,0.142579715411,60,0.55146501,1.55103037,3
44,0.00100202711012,0.142579715411,60,0.55146501,1.55103037,3
45,0.000927736945741,0.142579715411,60,0.55146501,1.55103037,3
46,0.000859239026877,0.142579715411,60,0.55146501,1.55103037,3
47,0.000796077446665,0.142579715411,60,0.55146501,1.55103037,3
48,0.000737829459198,0.142579715411,60,0.55146501,1.55103037,3
49,0.000684103902723,0.142579715411,60,0.55146501,1.55103037,3
50,0.000634539476684,0.142579715411,60,0.55146501,1.55103037,3
51,0.00058880294599,0.142579715411,60,0.55146501,1.55103037,3
52,0.000546587326728,0.142579715411,60,0.55146501,1.55103037,3
53,0.000507610092703,0.142579715411,60,0.55146501,1.55103037,3
54,0.000471611430771,0.142579715411,60,0.55146501,1.55103037,3
55,0.000438352564162,0.142579715411,60,0.55146501,1.55103037,3
56,0.000407614156321,0.142579715411,60,0.55146501,1.55103037,3
57,0.000379194802753,0.142579715411,60,0.55146501,1.55103037,3
58,0.000352909614597,0.142579715411,60,0.55146501,1.55103037,3
59,0.000328588894845,0.142579715411,60,0.55146501,1.55103037,3
0,0.0,0.140338897584,60,0.55546501,1.55103037,4
1,0.0,0.140338897584,60,0.55546501,1.55103037,4
2,0.0,0.140338897584,60,0.55546501,1.55103037,4
3,4.63806207338e-37,0.140338897584,60,0.55546501,1.55103037,4
4,8.53060930012e-06,0.140338897584,60,0.55546501,1.55103037,4
5,0.000204283156766,0.140338897584,60,0.55546501,1.55103037,4
6,0.000807547717283,0.140338897584,60,0.55546501,1.55103037,4
7,0.0017239375036,0.140338897584,60,0.55546501,1.55103037,4
8,0.00274220592633,0.140338897584,60,0.55546501,1.55103037,4
9,0.00369688285474,0.140338897584,60,0.55546501,1.55103037,4
10,0.00449764239537,0.140338897584,60,0.55546501,1.55103037,4
11,0.00511169723711,0.140338897584,60,0.55546501,1.55103037,4
12,0.0055408955374,0.140338897584,60,0.55546501,1.55103037,4
13,0.00580460522376,0.140338897584,60,0.55546501,1.55103037,4
14,0.00592904624978,0.140338897584,60,0.55546501,1.55103037,4
15,0.00594133691738,0.140338897584,60,0.55546501,1.55103037,4
16,0.00586651989819,0.140338897584,60,0.55546501,1.55103037,4
17,0.00572632434143,0.140338897584,60,0.55546501,1.55103037,4
18,0.00553887403387,0.140338897584,60,0.55546501,1.55103037,4
19,0.00531887124793,0.140338897584,60,0.55546501,1.55103037,4
20,0.00507798910082,0.140338897584,60,0.55546501,1.55103037,4
21,0.0048253275989,0.140338897584,60,0.55546501,1.55103037,4
22,0.00456785960959,0.140338897584,60,0.55546501,1.55103037,4
23,0.00431083301232,0.140338897584,60,0.55546501,1.55103037,4
24,0.00405811701776,0.140338897584,60,0.55546501,1.55103037,4
25,0.003812491877,0.140338897584,60,0.55546501,1.55103037,4
26,0.00357588652938,0.140338897584,60,0.55546501,1.55103037,4
27,0.0033495708377,0.140338897584,60,0.55546501,1.55103037,4
28,0.00313430946883,0.140338897584,60,0.55546501,1.55103037,4
29,0.00293048405962,0.140338897584,60,0.55546501,1.55103037,4
30,0.00273818953951,0.140338897584,60,0.55546501,1.55103037,4
31,0.00255730961418,0.140338897584,60,0.55546501,1.55103037,4
32,0.00238757557641,0.140338897584,60,0.55546501,1.55103037,4
33,0.00222861185762,0.140338897584,60,0.55546501,1.55103037,4
34,0.00207997108585,0.140338897584,60,0.55546501,1.55103037,4
35,0.001941160873,0.140338897584,60,0.55546501,1.55103037,4
36,0.00181166410728,0.140338897584,60,0.55546501,1.55103037,4
37,0.00169095416341,0.140338897584,60,0.55546501,1.55103037,4
38,0.0015785061498,0.140338897584,60,0.55546501,1.55103037,4
39,0.00147380507776,0.140338897584,60,0.55546501,1.55103037,4
40,0.0013763516497,0.140338897584,60,0.55546501,1.55103037,4
41,0.00128566621547,0.140338897584,60,0.55546501,1.55103037,4
42,0.00120129132709,0.140338897584,60,0.55546501,1.55103037,4
43,0.00112279322962,0.140338897584,60,0.55546501,1.55103037,4
44,0.00104976255166,0.140338897584,60,0.55546501,1.55103037,4
45,0.000981814401045,0.140338897584,60,0.55546501,1.55103037,4
46,0.000918588025669,0.140338897584,60,0.55546501,1.55103037,4
47,0.000859746162911,0.140338897584,60,0.55546501,1.55103037,4
48,0.000804974173257,0.140338897584,60,0.55546501,1.55103037,4
49,0.000753979031179,0.140338897584,60,0.55546501,1.55103037,4
50,0.00070648822902,0.140338897584,60,0.55546501,1.55103037,4
51,0.000662248635973,0.140338897584,60,0.55546501,1.55103037,4
52,0.000621025343607,0.140338897584,60,0.55546501,1.55103037,4
53,0.00058260052107,0.140338897584,60,0.55546501,1.55103037,4
54,0.00054677229672,0.140338897584,60,0.55546501,1.55103037,4
55,0.000513353677893,0.140338897584,60,0.55546501,1.55103037,4
56,0.000482171516745,0.140338897584,60,0.55546501,1.55103037,4
57,0.000453065527159,0.140338897584,60,0.55546501,1.55103037,4
58,0.000425887355467,0.140338897584,60,0.55546501,1.55103037,4
59,0.000400499706122,0.140338897584,60,0.55546501,1.55103037,4
0,1.52092202558e-06,0.140308192617,60,0.56046501,1.55103037,5
1,1.70424470708e-05,0.140308192617,60,0.56046501,1.55103037,5
2,7.8077811542e-05,0.140308192617,60,0.56046501,1.55103037,5
3,0.000221639785298,0.140308192617,60,0.56046501,1.55103037,5
4,0.000470518132616,0.140308192617,60,0.56046501,1.55103037,5
5,0.00082496236707,0.140308192617,60,0.56046501,1.55103037,5
6,0.00126594597795,0.140308192617,60,0.56046501,1.55103037,5
7,0.00176336851147,0.140308192617,60,0.56046501,1.55103037,5
8,0.00228407582185,0.140308192617,60,0.56046501,1.55103037,5
9,0.00279753836405,0.140308192617,60,0.56046501,1.55103037,5
10,0.0032789480067,0.140308192617,60,0.56046501,1.55103037,5
11,0.0037102994391,0.140308192617,60,0.56046501,1.55103037,5
12,0.00408017808496,0.140308192617,60,0.56046501,1.55103037,5
13,0.0043828598372,0.140308192617,60,0.56046501,1.55103037,5
14,0.0046171440308,0.140308192617,60,0.56046501,1.55103037,5
15,0.00478517616818,0.140308192617,60,0.56046501,1.55103037,5
16,0.00489139559763,0.140308192617,60,0.56046501,1.55103037,5
17,0.00494166411906,0.140308192617,60,0.56046501,1.55103037,5
18,0.00494258467129,0.140308192617,60,0.56046501,1.55103037,5
19,0.00490099460429,0.140308192617,60,0.56046501,1.55103037,5
20,0.00482360732824,0.140308192617,60,0.56046501,1.55103037,5
21,0.00471677352103,0.140308192617,60,0.56046501,1.55103037,5
22,0.00458633474554,0.140308192617,60,0.56046501,1.55103037,5
23,0.0044375459303,0.140308192617,60,0.56046501,1.55103037,5
24,0.00427504734989,0.140308192617,60,0.56046501,1.55103037,5
25,0.00410287078673,0.140308192617,60,0.56046501,1.55103037,5
26,0.00392446812846,0.140308192617,60,0.56046501,1.55103037,5
27,0.00374275364054,0.140308192617,60,0.56046501,1.55103037,5
28,0.00356015355401,0.140308192617,60,0.56046501,1.55103037,5
29,0.00337865848374,0.140308192617,60,0.56046501,1.55103037,5
30,0.00319987562136,0.140308192617,60,0.56046501,1.55103037,5
31,0.00302507871454,0.140308192617,60,0.56046501,1.55103037,5
32,0.00285525462326,0.140308192617,60,0.56046501,1.55103037,5
33,0.00269114580141,0.140308192617,60,0.56046501,1.55103037,5
34,0.00253328844056,0.140308192617,60,0.56046501,1.55103037,5
35,0.00238204627533,0.140308192617,60,0.56046501,1.55103037,5
36,0.00223764021995,0.140308192617,60,0.56046501,1.55103037,5
37,0.00210017410894,0.140308192617,60,0.56046501,1.55103037,5
38,0.00196965687101,0.140308192617,60,0.56046501,1.55103037,5
39,0.00184602148843,0.140308192617,60,0.56046501,1.55103037,5
40,0.00172914109565,0.140308192617,60,0.56046501,1.55103037,5
41,0.00161884255796,0.140308192617,60,0.56046501,1.55103037,5
42,0.00151491784934,0.140308192617,60,0.56046501,1.55103037,5
43,0.0014171335226,0.140308192617,60,0.56046501,1.55103037,5
44,0.00132523853632,0.140308192617,60,0.56046501,1.55103037,5
45,0.00123897067506,0.140308192617,60,0.56046501,1.55103037,5
46,0.00115806177126,0.140308192617,60,0.56046501,1.55103037,5
47,0.00108224191199,0.140308192617,60,0.56046501,1.55103037,5
48,0.00101124278964,0.140308192617,60,0.56046501,1.55103037,5
49,0.000944800334178,0.140308192617,60,0.56046501,1.55103037,5
50,0.000882656745669,0.140308192617,60,0.56046501,1.55103037,5
51,0.000824562028403,0.140308192617,60,0.56046501,1.55103037,5
52,0.000770275113294,0.140308192617,60,0.56046501,1.55103037,5
53,0.000719564642052,0.140308192617,60,0.56046501,1.55103037,5
54,0.000672209475382,0.140308192617,60,0.56046501,1.55103037,5
55,0.000627998977679,0.140308192617,60,0.56046501,1.55103037,5
56,0.000586733122304,0.140308192617,60,0.56046501,1.55103037,5
57,0.000548222454329,0.140308192617,60,0.56046501,1.55103037,5
58,0.000512287941526,0.140308192617,60,0.56046501,1.55103037,5
59,0.000478760739141,0.140308192617,60,0.56046501,1.55103037,5
0,0.0,0.134576983035,60,0.56646501,1.55103037,6
1,0.0,0.134576983035,60,0.56646501,1.55103037,6
2,0.0,0.134576983035,60,0.56646501,1.55103037,6
3,0.0,0.134576983035,60,0.56646501,1.55103037,6
4,0.0,0.134576983035,60,0.56646501,1.55103037,6
5,9.47704249979e-12,0.134576983035,60,0.56646501,1.55103037,6
6,3.61697350507e-05,0.134576983035,60,0.56646501,1.55103037,6
7,0.000384083345619,0.134576983035,60,0.56646501,1.55103037,6
8,0.00110827180786,0.134576983035,60,0.56646501,1.55103037,6
9,0.00200298311287,0.134576983035,60,0.56646501,1.55103037,6
10,0.00288184459066,0.134576983035,60,0.56646501,1.55103037,6
11,0.00364200337587,0.134576983035,60,0.56646501,1.55103037,6
12,0.00424428361246,0.134576983035,60,0.56646501,1.55103037,6
13,0.00468606749231,0.134576983035,60,0.56646501,1.55103037,6
14,0.00498244106138,0.134576983035,60,0.56646501,1.55103037,6
15,0.00515525097092,0.134576983035,60,0.56646501,1.55103037,6
16,0.00522736283028,0.134576983035,60,0.56646501,1.55103037,6
17,0.00521994321923,0.134576983035,60,0.56646501,1.55103037,6
18,0.00515138588975,0.134576983035,60,0.56646501,1.55103037,6
19,0.00503708213206,0.134576983035,60,0.56646501,1.55103037,6
20,0.00488959250049,0.134576983035,60,0.56646501,1.55103037,6
21,0.00471898344072,0.134576983035,60,0.56646501,1.55103037,6
22,0.00453320759275,0.134576983035,60,0.56646501,1.55103037,6
23,0.0043384693926,0.134576983035,60,0.56646501,1.55103037,6
24,0.0041395510693,0.134576983035,60,0.56646501,1.55103037,6
