,UCOR,CUMCO,term,sigma,scale,id
0,0.0,0.0858014783789,36,0.54646501,1.55103037,1
1,0.0,0.0858014783789,36,0.54646501,1.55103037,1
2,0.0,0.0858014783789,36,0.54646501,1.55103037,1
3,0.0,0.0858014783789,36,0.54646501,1.55103037,1
4,0.0,0.0858014783789,36,0.54646501,1.55103037,1
5,0.000268741387298,0.0858014783789,36,0.54646501,1.55103037,1
6,0.00258838033461,0.0858014783789,36,0.54646501,1.55103037,1
7,0.00551750881592,0.0858014783789,36,0.54646501,1.55103037,1
8,0.00740316111349,0.0858014783789,36,0.54646501,1.55103037,1
9,0.00811247918134,0.0858014783789,36,0.54646501,1.55103037,1
10,0.00800783132233,0.0858014783789,36,0.54646501,1.55103037,1
11,0.00745005384601,0.0858014783789,36,0.54646501,1.55103037,1
12,0.00668926348583,0.0858014783789,36,0.54646501,1.55103037,1
13,0.00587537234342,0.0858014783789,36,0.54646501,1.55103037,1
14,0.0050895695028,0.0858014783789,36,0.54646501,1.55103037,1
15,0.00437083266267,0.0858014783789,36,0.54646501,1.55103037,1
16,0.0037338676796,0.0858014783789,36,0.54646501,1.55103037,1
17,0.0031802196175,0.0858014783789,36,0.54646501,1.55103037,1
18,0.00270482598781,0.0858014783789,36,0.54646501,1.55103037,1
19,0.00229974293973,0.0858014783789,36,0.54646501,1.55103037,1
20,0.00195618458394,0.0858014783789,36,0.54646501,1.55103037,1
21,0.00166558135791,0.0858014783789,36,0.54646501,1.55103037,1
22,0.00142008074214,0.0858014783789,36,0.54646501,1.55103037,1
23,0.00121273929296,0.0858014783789,36,0.54646501,1.55103037,1
24,0.0010375502615,0.0858014783789,36,0.54646501,1.55103037,1
25,0.000889389149795,0.0858014783789,36,0.54646501,1.55103037,1
26,0.000763923310205,0.0858014783789,36,0.54646501,1.55103037,1
27,0.000657510667551,0.0858014783789,36,0.54646501,1.55103037,1
28,0.000567100570793,0.0858014783789,36,0.54646501,1.55103037,1
29,0.000490142949668,0.0858014783789,36,0.54646501,1.55103037,1
30,0.000424508170313,0.0858014783789,36,0.54646501,1.55103037,1
31,0.00036841796507,0.0858014783789,36,0.54646501,1.55103037,1
32,0.000320386799991,0.0858014783789,36,0.54646501,1.55103037,1
33,0.00027917259755,0.0858014783789,36,0.54646501,1.55103037,1
34,0.000243735595152,0.0858014783789,36,0.54646501,1.55103037,1
35,0.00021320414403,0.0858014783789,36,0.54646501,1.55103037,1
0,1.08718421122e-14,0.0844000690475,36,0.54846501,1.55103037,2
1,9.68507584649e-07,0.0844000690475,36,0.54846501,1.55103037,2
2,5.81858948168e-05,0.0844000690475,36,0.54846501,1.55103037,2
3,0.000386855329824,0.0844000690475,36,0.54846501,1.55103037,2
4,0.00111753204031,0.0844000690475,36,0.54846501,1.55103037,2
5,0.0021313466059,0.0844000690475,36,0.54846501,1.55103037,2
6,0.00320179989526,0.0844000690475,36,0.54846501,1.55103037,2
7,0.00413992560275,0.0844000690475,36,0.54846501,1.55103037,2
8,0.00484264973401,0.0844000690475,36,0.54846501,1.55103037,2
9,0.00528210791858,0.0844000690475,36,0.54846501,1.55103037,2
10,0.00547803274984,0.0844000690475,36,0.54846501,1.55103037,2
11,0.00547305572881,0.0844000690475,36,0.54846501,1.55103037,2
12,0.00531612829161,0.0844000690475,36,0.54846501,1.55103037,2
13,0.00505328458678,0.0844000690475,36,0.54846501,1.55103037,2
14,0.00472348554225,0.0844000690475,36,0.54846501,1.55103037,2
15,0.00435748780421,0.0844000690475,36,0.54846501,1.55103037,2
16,0.00397828823424,0.0844000690475,36,0.54846501,1.55103037,2
17,0.00360224888594,0.0844000690475,36,0.54846501,1.55103037,2
18,0.00324040257577,0.0844000690475,36,0.54846501,1.55103037,2
19,0.00289968886272,0.0844000690475,36,0.54846501,1.55103037,2
20,0.00258401538159,0.0844000690475,36,0.54846501,1.55103037,2
21,0.00229511752397,0.0844000690475,36,0.54846501,1.55103037,2
22,0.0020332275237,0.0844000690475,36,0.54846501,1.55103037,2
23,0.00179757964505,0.0844000690475,36,0.54846501,1.55103037,2
24,0.00158678204387,0.0844000690475,36,0.54846501,1.55103037,2
25,0.00139908410813,0.0844000690475,36,0.54846501,1.55103037,2
26,0.00123256404518,0.0844000690475,36,0.54846501,1.55103037,2
27,0.00108525690566,0.0844000690475,36,0.54846501,1.55103037,2
28,0.000955238937122,0.0844000690475,36,0.54846501,1.55103037,2
29,0.000840680469803,0.0844000690475,36,0.54846501,1.55103037,2
30,0.000739876526435,0.0844000690475,36,0.54846501,1.55103037,2
31,0.000651261972314,0.0844000690475,36,0.54846501,1.55103037,2
32,0.000573416191124,0.0844000690475,36,0.54846501,1.55103037,2
33,0.000505060885584,0.0844000690475,36,0.54846501,1.55103037,2
34,0.00044505356657,0.0844000690475,36,0.54846501,1.55103037,2
35,0.00039237853018,0.0844000690475,36,0.54846501,1.55103037,2
0,0.0,0.0861429589612,36,0.55146501,1.55103037,3
1,0.0,0.0861429589612,36,0.55146501,1.55103037,3
2,5.96882545144e-10,0.0861429589612,36,0.55146501,1.55103037,3
3,7.61465584941e-05,0.0861429589612,36,0.55146501,1.55103037,3
4,0.000977584331907,0.0861429589612,36,0.55146501,1.55103037,3
5,0.00287026759071,0.0861429589612,36,0.55146501,1.55103037,3
6,0.00487213397738,0.0861429589612,36,0.55146501,1.55103037,3
7,0.00633940180368,0.0861429589612,36,0.55146501,1.55103037,3
8,0.00711148156006,0.0861429589612,36,0.55146501,1.55103037,3
9,0.00728986846474,0.0861429589612,36,0.55146501,1.55103037,3
10,0.00705159180133,0.0861429589612,36,0.55146501,1.55103037,3
11,0.00656135153809,0.0861429589612,36,0.55146501,1.55103037,3
12,0.00594429343334,0.0861429589612,36,0.55146501,1.55103037,3
13,0.00528542206278,0.0861429589612,36,0.55146501,1.55103037,3
14,0.00463769232603,0.0861429589612,36,0.55146501,1.55103037,3
15,0.00403116406829,0.0861429589612,36,0.55146501,1.55103037,3
16,0.0034806395685,0.0861429589612,36,0.55146501,1.55103037,3
17,0.0029913013866,0.0861429589612,36,0.55146501,1.55103037,3
18,0.00256260214322,0.0861429589612,36,0.55146501,1.55103037,3
19,0.00219082823824,0.0861429589612,36,0.55146501,1.55103037,3
20,0.00187072724592,0.0861429589612,36,0.55146501,1.55103037,3
21,0.00159650258596,0.0861429589612,36,0.55146501,1.55103037,3
22,0.00136239385804,0.0861429589612,36,0.55146501,1.55103037,3
23,0.00116299293224,0.0861429589612,36,0.55146501,1.55103037,3
24,0.000993395914188,0.0861429589612,36,0.55146501,1.55103037,3
25,0.000849256300408,0.0861429589612,36,0.55146501,1.55103037,3
26,0.000726781129273,0.0861429589612,36,0.55146501,1.55103037,3
27,0.000622696380912,0.0861429589612,36,0.55146501,1.55103037,3
28,0.000534197755429,0.0861429589612,36,0.55146501,1.55103037,3
29,0.000458896459706,0.0861429589612,36,0.55146501,1.55103037,3
30,0.000394765518767,0.0861429589612,36,0.55146501,1.55103037,3
31,0.000340089564103,0.0861429589612,36,0.55146501,1.55103037,3
32,0.00029341948569,0.0861429589612,36,0.55146501,1.55103037,3
33,0.000253532404453,0.0861429589612,36,0.55146501,1.55103037,3
34,0.000219396892103,0.0861429589612,36,0.55146501,1.55103037,3
35,0.000190143083751,0.0861429589612,36,0.55146501,1.55103037,3
0,0.0,0.0842709724154,36,0.55546501,1.55103037,4
1,7.20898055966e-06,0.0842709724154,36,0.55546501,1.55103037,4
2,0.000267811331556,0.0842709724154,36,0.55546501,1.55103037,4
3,0.00115725483977,0.0842709724154,36,0.55546501,1.55103037,4
4,0.00245243939475,0.0842709724154,36,0.55546501,1.55103037,4
5,0.00372952021983,0.0842709724154,36,0.55546501,1.55103037,4
6,0.00472639295058,0.0842709724154,36,0.55546501,1.55103037,4
7,0.00536270618991,0.0842709724154,36,0.55546501,1.55103037,4
8,0.00566415995311,0.0842709724154,36,0.55546501,1.55103037,4
9,0.00569887446705,0.0842709724154,36,0.55546501,1.55103037,4
10,0.0055416584981,0.0842709724154,36,0.55546501,1.55103037,4
11,0.005258241932,0.0842709724154,36,0.55546501,1.55103037,4
12,0.00490044482722,0.0842709724154,36,0.55546501,1.55103037,4
13,0.00450641830206,0.0842709724154,36,0.55546501,1.55103037,4
14,0.00410279741276,0.0842709724154,36,0.55546501,1.55103037,4
15,0.00370725723723,0.0842709724154,36,0.55546501,1.55103037,4
16,0.00333084273173,0.0842709724154,36,0.55546501,1.55103037,4
17,0.00297987073242,0.0842709724154,36,0.55546501,1.55103037,4
18,0.0026573917932,0.0842709724154,36,0.55546501,1.55103037,4
19,0.00236427136739,0.0842709724154,36,0.55546501,1.55103037,4
20,0.00209996765012,0.0842709724154,36,0.55546501,1.55103037,4
21,0.00186307876641,0.0842709724154,36,0.55546501,1.55103037,4
22,0.00165171980389,0.0842709724154,36,0.55546501,1.55103037,4
23,0.00146377699553,0.0842709724154,36,0.55546501,1.55103037,4
24,0.00129707468975,0.0842709724154,36,0.55546501,1.55103037,4
25,0.00114948130987,0.0842709724154,36,0.55546501,1.55103037,4
26,0.00101897323837,0.0842709724154,36,0.55546501,1.55103037,4
27,0.000903670131961,0.0842709724154,36,0.55546501,1.55103037,4
28,0.000801851195003,0.0842709724154,36,0.55546501,1.55103037,4
29,0.000711959065644,0.0842709724154,36,0.55546501,1.55103037,4
30,0.000632595914396,0.0842709724154,36,0.55546501,1.55103037,4
31,0.000562514899032,0.0842709724154,36,0.55546501,1.55103037,4
32,0.000500609095006,0.0842709724154,36,0.55546501,1.55103037,4
33,0.000445899304928,0.0842709724154,36,0.55546501,1.55103037,4
34,0.000397521654346,0.0842709724154,36,0.55546501,1.55103037,4
35,0.000354715539887,0.0842709724154,36,0.55546501,1.55103037,4
0,5.51793894836e-10,0.0836404625223,36,0.56046501,1.55103037,5
1,6.24471149145e-06,0.0836404625223,36,0.56046501,1.55103037,5
2,0.00012725942632,0.0836404625223,36,0.56046501,1.55103037,5
3,0.000572951344752,0.0836404625223,36,0.56046501,1.55103037,5
4,0.00136952806312,0.0836404625223,36,0.56046501,1.55103037,5
5,0.00235000102754,0.0836404625223,36,0.56046501,1.55103037,5
6,0.00331343426594,0.0836404625223,36,0.56046501,1.55103037,5
7,0.00411891441971,0.0836404625223,36,0.56046501,1.55103037,5
8,0.00470112699939,0.0836404625223,36,0.56046501,1.55103037,5
9,0.00505174716592,0.0836404625223,36,0.56046501,1.55103037,5
10,0.00519545429537,0.0836404625223,36,0.56046501,1.55103037,5
11,0.0051712717704,0.0836404625223,36,0.56046501,1.55103037,5
12,0.00502085762667,0.0836404625223,36,0.56046501,1.55103037,5
13,0.00478229595902,0.0836404625223,36,0.56046501,1.55103037,5
14,0.00448748184321,0.0836404625223,36,0.56046501,1.55103037,5
15,0.0041615745064,0.0836404625223,36,0.56046501,1.55103037,5
16,0.00382349855573,0.0836404625223,36,0.56046501,1.55103037,5
17,0.00348687985326,0.0836404625223,36,0.56046501,1.55103037,5
18,0.00316107885533,0.0836404625223,36,0.56046501,1.55103037,5
19,0.0028521547834,0.0836404625223,36,0.56046501,1.55103037,5
20,0.00256369203188,0.0836404625223,36,0.56046501,1.55103037,5
21,0.00229747270324,0.0836404625223,36,0.56046501,1.55103037,5
22,0.00205400472548,0.0836404625223,36,0.56046501,1.55103037,5
23,0.00183292549956,0.0836404625223,36,0.56046501,1.55103037,5
24,0.00163330357584,0.0836404625223,36,0.56046501,1.55103037,5
25,0.00145385957413,0.0836404625223,36,0.56046501,1.55103037,5
26,0.00129312470449,0.0836404625223,36,0.56046501,1.55103037,5
27,0.00114955199409,0.0836404625223,36,0.56046501,1.55103037,5
28,0.001021592248,0.0836404625223,36,0.56046501,1.55103037,5
29,0.00090774410004,0.0836404625223,36,0.56046501,1.55103037,5
30,0.00080658530511,0.0836404625223,36,0.56046501,1.55103037,5
31,0.000716790661839,0.0836404625223,36,0.56046501,1.55103037,5
32,0.000637140577872,0.0836404625223,36,0.56046501,1.55103037,5
33,0.000566523231813,0.0836404625223,36,0.56046501,1.55103037,5
34,0.000503932483365,0.0836404625223,36,0.56046501,1.55103037,5
35,0.000448463080795,0.0836404625223,36,0.56046501,1.55103037,5
0,0.0,0.0855693696958,36,0.56646501,1.55103037,6
1,0.0,0.0855693696958,36,0.56646501,1.55103037,6
2,5.13650219997e-06,0.0855693696958,36,0.56646501,1.55103037,6
3,0.000503313065687,0.0855693696958,36,0.56646501,1.55103037,6
4,0.00217529252311,0.0855693696958,36,0.56646501,1.55103037,6
5,0.00418997991502,0.0855693696958,36,0.56646501,1.55103037,6
6,0.00575128432344,0.0855693696958,36,0.56646501,1.55103037,6
7,0.00663383866679,0.0855693696958,36,0.56646501,1.55103037,6
8,0.00692288986869,0.0855693696958,36,0.56646501,1.55103037,6
9,0.00679074458247,0.0855693696958,36,0.56646501,1.55103037,6
10,0.00639864069531,0.0855693696958,36,0.56646501,1.55103037,6
11,0.00586869349882,0.0855693696958,36,0.56646501,1.55103037,6
12,0.00528393937211,0.0855693696958,36,0.56646501,1.55103037,6
13,0.00469665667247,0.0855693696958,36,0.56646501,1.55103037,6
14,0.00413732878044,0.0855693696958,36,0.56646501,1.55103037,6
15,0.00362192688957,0.0855693696958,36,0.56646501,1.55103037,6
16,0.00315720246922,0.0855693696958,36,0.56646501,1.55103037,6
17,0.00274431068813,0.0855693696958,36,0.56646501,1.55103037,6
18,0.00238119704859,0.0855693696958,36,0.56646501,1.55103037,6
19,0.00206412240217,0.0855693696958,36,0.56646501,1.55103037,6
20,0.00178860931263,0.0855693696958,36,0.56646501,1.55103037,6
21,0.00155000946369,0.0855693696958,36,0.56646501,1.55103037,6
22,0.00134382788008,0.0855693696958,36,0.56646501,1.55103037,6
23,0.001165894112,0.0855693696958,36,0.56646501,1.55103037,6
24,0.00101243924311,0.0855693696958,36,0.56646501,1.55103037,6
25,0.000880116624308,0.0855693696958,36,0.56646501,1.55103037,6
26,0.000765990415864,0.0855693696958,36,0.56646501,1.55103037,6
27,0.000667507011252,0.0855693696958,36,0.56646501,1.55103037,6
28,0.000582458597698,0.0855693696958,36,0.56646501,1.55103037,6
29,0.000508944385766,0.0855693696958,36,0.56646501,1.55103037,6
30,0.000445332682503,0.0855693696958,36,0.56646501,1.55103037,6
31,0.000390225508637,0.0855693696958,36,0.56646501,1.55103037,6
32,0.00034242655484,0.0855693696958,36,0.56646501,1.55103037,6
33,0.000300912729644,0.0855693696958,36,0.56646501,1.55103037,6
34,0.000264809239183,0.0855693696958,36,0.56646501,1.55103037,6
35,0.000233367970334,0.0855693696958,36,0.56646501,1.55103037,6
0,0.0,0.0820788031048,36,0.57346501,1.55103037,7
1,0.0,0.0820788031048,36,0.57346501,1.55103037,7
2,0.0,0.0820788031048,36,0.57346501,1.55103037,7
3,5.50490396751e-05,0.0820788031048,36,0.57346501,1.55103037,7
4,0.000958542876528,0.0820788031048,36,0.57346501,1.55103037,7
5,0.00256986956825,0.0820788031048,36,0.57346501,1.55103037,7
6,0.00403192368842,0.0820788031048,36,0.57346501,1.55103037,7
7,0.00501250878127,0.0820788031048,36,0.57346501,1.55103037,7
8,0.00551739838586,0.0820788031048,36,0.57346501,1.55103037,7
9,0.00565774216484,0.0820788031048,36,0.57346501,1.55103037,7
10,0.00555103682477,0.0820788031048,36,0.57346501,1.55103037,7
11,0.00529161916033,0.0820788031048,36,0.57346501,1.55103037,7
12,0.00494735461766,0.0820788031048,36,0.57346501,1.55103037,7
13,0.00456415914348,0.0820788031048,36,0.57346501,1.55103037,7
14,0.00417171538678,0.0820788031048,36,0.57346501,1.55103037,7
15,0.00378835904352,0.0820788031048,36,0.57346501,1.55103037,7
16,0.00342476026391,0.0820788031048,36,0.57346501,1.55103037,7
17,0.00308654023076,0.0820788031048,36,0.57346501,1.55103037,7
18,0.00277607262287,0.0820788031048,36,0.57346501,1.55103037,7
19,0.00249369936737,0.0820788031048,36,0.57346501,1.55103037,7
20,0.0022385391064,0.0820788031048,36,0.57346501,1.55103037,7
21,0.00200901772395,0.0820788031048,36,0.57346501,1.55103037,7
22,0.00180321143817,0.0820788031048,36,0.57346501,1.55103037,7
23,0.00161906457114,0.0820788031048,36,0.57346501,1.55103037,7
24,0.00145452414743,0.0820788031048,36,0.57346501,1.55103037,7
25,0.00130761973051,0.0820788031048,36,0.57346501,1.55103037,7
26,0.00117650755439,0.0820788031048,36,0.57346501,1.55103037,7
27,0.00105949168461,0.0820788031048,36,0.57346501,1.55103037,7
28,0.000955030683465,0.0820788031048,36,0.57346501,1.55103037,7
29,0.000861735391157,0.0820788031048,36,0.57346501,1.55103037,7
30,0.000778361512935,0.0820788031048,36,0.57346501,1.55103037,7
31,0.000703799415007,0.0820788031048,36,0.57346501,1.55103037,7
32,0.000637062671222,0.0820788031048,36,0.57346501,1.55103037,7
33,0.000577276329064,0.0820788031048,36,0.57346501,1.55103037,7
34,0.00052366548334,0.0820788031048,36,0.57346501,1.55103037,7
35,0.000475544495739,0.0820788031048,36,0.57346501,1.55103037,7
0,0.0,0.0853259836307,36,0.58146501,1.55103037,8
1,0.0,0.0853259836307,36,0.58146501,1.55103037,8
2,2.45470037277e-06,0.0853259836307,36,0.58146501,1.55103037,8
3,0.000215733748001,0.0853259836307,36,0.58146501,1.55103037,8
4,0.00116659092595,0.0853259836307,36,0.58146501,1.55103037,8
5,0.00269043672132,0.0853259836307,36,0.58146501,1.55103037,8
6,0.00422917170573,0.0853259836307,36,0.58146501,1.55103037,8
7,0.00540959167298,0.0853259836307,36,0.58146501,1.55103037,8
8,0.00611810786321,0.0853259836307,36,0.58146501,1.55103037,8
9,0.00639565119897,0.0853259836307,36,0.58146501,1.55103037,8
10,0.00634194061316,0.0853259836307,36,0.58146501,1.55103037,8
11,0.00606233475716,0.0853259836307,36,0.58146501,1.55103037,8
12,0.00564577593635,0.0853259836307,36,0.58146501,1.55103037,8
13,0.00515928857706,0.0853259836307,36,0.58146501,1.55103037,8
14,0.00464967337565,0.0853259836307,36,0.58146501,1.55103037,8
15,0.0041475422787,0.0853259836307,36,0.58146501,1.55103037,8
16,0.00367152219204,0.0853259836307,36,0.58146501,1.55103037,8
17,0.00323182382691,0.0853259836307,36,0.58146501,1.55103037,8
18,0.00283299661393,0.0853259836307,36,0.58146501,1.55103037,8
19,0.00247593981476,0.0853259836307,36,0.58146501,1.55103037,8
20,0.00215931539263,0.0853259836307,36,0.58146501,1.55103037,8
21,0.00188051078661,0.0853259836307,36,0.58146501,1.55103037,8
22,0.00163627670754,0.0853259836307,36,0.58146501,1.55103037,8
23,0.00142313693576,0.0853259836307,36,0.58146501,1.55103037,8
24,0.00123764172601,0.0853259836307,36,0.58146501,1.55103037,8
25,0.00107651607075,0.0853259836307,36,0.58146501,1.55103037,8
26,0.000936738707807,0.0853259836307,36,0.58146501,1.55103037,8
27,0.000815576573005,0.0853259836307,36,0.58146501,1.55103037,8
28,0.00071059144889,0.0853259836307,36,0.58146501,1.55103037,8
29,0.000619630006506,0.0853259836307,36,0.58146501,1.55103037,8
30,0.000540804607226,0.0853259836307,36,0.58146501,1.55103037,8
31,0.00047246962048,0.0853259836307,36,0.58146501,1.55103037,8
32,0.000413196251587,0.0853259836307,36,0.58146501,1.55103037,8
33,0.000361747698527,0.0853259836307,36,0.58146501,1.55103037,8
34,0.000317055682223,0.0853259836307,36,0.58146501,1.55103037,8
35,0.000278198892892,0.0853259836307,36,0.58146501,1.55103037,8
0,8.79371290825e-05,0.0855588479512,36,0.59046501,1.55103037,9
1,0.000383638323559,0.0855588479512,36,0.59046501,1.55103037,9
2,0.000979894174919,0.0855588479512,36,0.59046501,1.55103037,9
3,0.00182694686267,0.0855588479512,36,0.59046501,1.55103037,9
4,0.0027845888074,0.0855588479512,36,0.59046501,1.55103037,9
5,0.0037016205694,0.0855588479512,36,0.59046501,1.55103037,9
6,0.00446610832522,0.0855588479512,36,0.59046501,1.55103037,9
7,0.00501937541123,0.0855588479512,36,0.59046501,1.55103037,9
8,0.00534842100535,0.0855588479512,36,0.59046501,1.55103037,9
9,0.00547093806636,0.0855588479512,36,0.59046501,1.55103037,9
10,0.00542095003339,0.0855588479512,36,0.59046501,1.55103037,9
11,0.00523809196937,0.0855588479512,36,0.59046501,1.55103037,9
12,0.00496084133115,0.0855588479512,36,0.59046501,1.55103037,9
13,0.00462291996196,0.0855588479512,36,0.59046501,1.55103037,9
14,0.00425187206226,0.0855588479512,36,0.59046501,1.55103037,9
15,0.00386896363386,0.0855588479512,36,0.59046501,1.55103037,9
16,0.00348978328974,0.0855588479512,36,0.59046501,1.55103037,9
17,0.00312514075637,0.0855588479512,36,0.59046501,1.55103037,9
18,0.0027820239373,0.0855588479512,36,0.59046501,1.55103037,9
19,0.00246448759582,0.0855588479512,36,0.59046501,1.55103037,9
20,0.00217441728887,0.0855588479512,36,0.59046501,1.55103037,9
21,0.00191215333121,0.0855588479512,36,0.59046501,1.55103037,9
22,0.00167698145073,0.0855588479512,36,0.59046501,1.55103037,9
23,0.00146750683172,0.0855588479512,36,0.59046501,1.55103037,9
24,0.00128193144323,0.0855588479512,36,0.59046501,1.55103037,9
25,0.0011182541035,0.0855588479512,36,0.59046501,1.55103037,9
26,0.000974410570341,0.0855588479512,36,0.59046501,1.55103037,9
27,0.000848368178671,0.0855588479512,36,0.59046501,1.55103037,9
28,0.000738186763156,0.0855588479512,36,0.59046501,1.55103037,9
29,0.000642055090475,0.0855588479512,36,0.59046501,1.55103037,9
30,0.000558309891006,0.0855588479512,36,0.59046501,1.55103037,9
31,0.000485442837436,0.0855588479512,36,0.59046501,1.55103037,9
